"Physical Time: Physical Time (s)","Average bed height Monitor: Surface Average of Centroid[Y] (m)"
25.0000999999551,0.601472455777993
25.0001999999551,0.60150503411971
25.0002999999551,0.601537753703812
25.0003999999551,0.601570615302745
25.0004999999551,0.601603619822674
25.0005999999551,0.60163676788807
25.0006999999551,0.601670060216062
25.0007999999551,0.601703497379324
25.0008999999551,0.6017370791024
25.0009999999551,0.601772221230636
25.0010999999551,0.601806121688668
25.0011999999551,0.601840170606277
25.0012999999551,0.601874368741803
25.0013999999551,0.601908717012412
25.0014999999551,0.60194316743701
25.0015999999551,0.601977819107775
25.0016999999551,0.602012624634993
25.0017999999551,0.602047584837502
25.0018999999551,0.602082700502789
25.0019999999551,0.602117973560225
25.0020999999551,0.602154369712953
25.0021999999551,0.602190247317815
25.0022999999551,0.602226283666532
25.0023999999551,0.60226247986335
25.0024999999551,0.602298837250049
25.0025999999551,0.602335356760523
25.0026999999551,0.602372039830183
25.0027999999551,0.602410525477323
25.0028999999551,0.602447631201993
25.0029999999551,0.602484904065261
25.0030999999551,0.602522345630608
25.0031999999551,0.602559682393247
25.0032999999551,0.602596575273802
25.0033999999551,0.602633608169211
25.0034999999551,0.60267078248296
25.0035999999551,0.602708100023338
25.0036999999551,0.602745562433586
25.0037999999551,0.602783373992431
25.0038999999551,0.602820815419065
25.0039999999551,0.602863984179338
25.0040999999551,0.60290628558535
25.0041999999551,0.602948004799296
25.0042999999551,0.602989140006881
25.0043999999551,0.603029697846962
25.0044999999551,0.603069688060246
25.0045999999551,0.60310912202862
25.0046999999551,0.603148011126543
25.0047999999551,0.603186367219895
25.0048999999551,0.603224202953403
25.0049999999551,0.603261530210864
25.0050999999551,0.603298361911426
25.0051999999551,0.603334710430242
25.0052999999551,0.603372416496434
25.0053999999551,0.603407895208233
25.0054999999551,0.603442929360111
25.0055999999551,0.603477530868418
25.0056999999551,0.60351171112622
25.0057999999551,0.603546012287792
25.0058999999551,0.603577953237858
25.0059999999551,0.603611479106356
25.0060999999551,0.603644962661105
25.0061999999551,0.603678402872153
25.0062999999551,0.603712281540683
25.0063999999551,0.603746214920773
25.0064999999551,0.60377996311684
25.0065999999551,0.60381370437958
25.0066999999551,0.603847437265357
25.0067999999551,0.6038811601746
25.0068999999551,0.603914985959635
25.0069999999551,0.603948762691847
25.0070999999551,0.603982529376625
25.0071999999551,0.604016285626461
25.0072999999551,0.604050031204496
25.0073999999551,0.60408221772327
25.0074999999551,0.604115946389365
25.0075999999551,0.60414973323412
25.0076999999551,0.604183645963396
25.0077999999551,0.604217552319713
25.0078999999551,0.604251454472725
25.0079999999551,0.604285358974845
25.0080999999551,0.604319274661588
25.0081999999551,0.604353204749444
25.0082999999551,0.604387147969321
25.0083999999551,0.60430277084824
25.0084999999551,0.604336614630646
25.0085999999551,0.604370462163332
25.0086999999551,0.604404310184613
25.0087999999551,0.604439229521399
25.0088999999551,0.60447313006521
25.0089999999551,0.604507029800073
25.0090999999551,0.604540927957929
25.0091999999551,0.604576532354199
25.0092999999551,0.604609990156083
25.0093999999551,0.604643604684634
25.0094999999551,0.604677289024095
25.0095999999551,0.604711040251261
25.0096999999551,0.60474485461937
25.0097999999551,0.604778709330551
25.0098999999551,0.604812733657574
25.0099999999551,0.604846874167642
25.0100999999551,0.604881128410467
25.0101999999551,0.604915494837716
25.0102999999551,0.604949972088755
25.0103999999551,0.604984558981078
25.0104999999551,0.605019255845525
25.0105999999551,0.605054065026414
25.0106999999551,0.605088987909677
25.0107999999551,0.605124025252269
25.0108999999551,0.60515917324186
25.0109999999551,0.605194500316001
25.0110999999551,0.60523074868024
25.0111999999551,0.605267090112106
25.0112999999551,0.605303522430959
25.0113999999551,0.605340044745904
25.0114999999551,0.605376656069265
25.0115999999551,0.605413356653412
25.0116999999551,0.605450145373695
25.0117999999551,0.605487022973158
25.0118999999551,0.605523989689386
25.0119999999551,0.605561713744862
25.0120999999551,0.605598937830517
25.0121999999551,0.605637413890913
25.0122999999551,0.605675127834521
25.0123999999551,0.605712922368721
25.0124999999551,0.60575079742586
25.0125999999551,0.605788752051648
25.0126999999551,0.605826786455761
25.0127999999551,0.605865202260412
25.0128999999551,0.605903380511665
25.0129999999551,0.605941665374163
25.0130999999551,0.605980056517234
25.0131999999551,0.606018553027651
25.0132999999551,0.606057154764029
25.0133999999551,0.606095860589594
25.0134999999551,0.606134668610004
25.0135999999551,0.606173578348494
25.0136999999551,0.606212588058203
25.0137999999551,0.606251696503425
25.0138999999551,0.606290902350188
25.0139999999551,0.606331976723572
25.0140999999551,0.606371475076088
25.0141999999551,0.606411669618742
25.0142999999551,0.606451347794383
25.0143999999551,0.606491105697444
25.0144999999551,0.606530942742062
25.0145999999551,0.60657085909266
25.0146999999551,0.606610854575511
25.0147999999551,0.606650929296157
25.0148999999551,0.606693061253864
25.0149999999551,0.606734018796284
25.0150999999551,0.606775061470365
25.0151999999551,0.606816188773546
25.0152999999551,0.606859112428406
25.0153999999551,0.60690159697534
25.0154999999551,0.606946744869403
25.0155999999551,0.606989556209307
25.0156999999551,0.607032408169013
25.015799999955,0.607075302973352
25.015899999955,0.607118242406673
25.015999999955,0.607161228069233
25.016099999955,0.607207869675405
25.016199999955,0.607250975478796
25.016299999955,0.607294106961528
25.016399999955,0.607337323550799
25.016499999955,0.607380599601086
25.016599999955,0.607495756844741
25.016699999955,0.607537213004347
25.016799999955,0.607578678380682
25.016899999955,0.607620155244098
25.016999999955,0.607661642862514
25.017099999955,0.607704772951598
25.017199999955,0.607746421320915
25.017299999955,0.607789549770371
25.017399999955,0.607831873419305
25.017499999955,0.607873669397265
25.017599999955,0.607915483429446
25.017699999955,0.607957317346393
25.017799999955,0.607999172391844
25.017899999955,0.608041049730088
25.017999999955,0.608082951153046
25.018099999955,0.608124881184549
25.018199999955,0.608166841920187
25.018299999955,0.608208834186391
25.018399999955,0.608251967068554
25.018499999955,0.608294348890152
25.018599999955,0.608337218521578
25.018699999955,0.608380567926189
25.018799999955,0.60842687517821
25.018899999955,0.608471408700588
25.018999999955,0.608516399413533
25.019099999955,0.608561839830499
25.019199999955,0.608607511962498
25.019299999955,0.608653285491372
25.019399999955,0.608699008600661
25.019499999955,0.608744680756795
25.019599999955,0.608790301083598
25.019699999955,0.608835874076358
25.019799999955,0.608881401129794
25.019899999955,0.608926881807653
25.019999999955,0.60897231529335
25.020099999955,0.609017700916218
25.020199999955,0.609063989775202
25.020299999955,0.609109296732313
25.020399999955,0.609181869597454
25.020499999955,0.609227002606113
25.020599999955,0.609272095296497
25.020699999955,0.60931714827454
25.020799999955,0.609362160732746
25.020899999955,0.609407130019172
25.020999999955,0.609452053967272
25.021099999955,0.609496930870895
25.021199999955,0.609541759198095
25.021299999955,0.609586538064173
25.021399999955,0.609631265995407
25.021499999955,0.609675942398655
25.021599999955,0.609720413394181
25.021699999955,0.609764994405078
25.021799999955,0.609809419059232
25.021899999955,0.609853683723554
25.021999999955,0.609897783213317
25.022099999955,0.609941570932889
25.022199999955,0.609985628884409
25.022299999955,0.610029582583136
25.022399999955,0.610072668393355
25.022499999955,0.610118320231671
25.022599999955,0.610162546182785
25.022699999955,0.610206706983143
25.022799999955,0.610250802513799
25.022899999955,0.61029483333695
25.022999999955,0.61033952028613
25.023099999955,0.610383444378607
25.023199999955,0.610427292807855
25.023299999955,0.610471812014611
25.023399999955,0.610515605206572
25.023499999955,0.610559323842357
25.023599999955,0.610602967828022
25.023699999955,0.610646538006538
25.023799999955,0.610690034897312
25.023899999955,0.610733458551445
25.023999999955,0.610776809654544
25.024099999955,0.61082008859027
25.024199999955,0.610863296736481
25.024299999955,0.610906436324749
25.024399999955,0.610949509360289
25.024499999955,0.610992516192391
25.024599999955,0.611035457361558
25.024699999955,0.611078332498735
25.024799999955,0.611123374441819
25.024899999955,0.611166413401264
25.024999999955,0.611209384587433
25.025099999955,0.611252288644928
25.025199999955,0.611295125816891
25.025299999955,0.611339491332687
25.025399999955,0.611382288726039
25.025499999955,0.611425019781724
25.025599999955,0.611468526319008
25.025699999955,0.61151139276706
25.025799999955,0.61155419387734
25.025899999955,0.611596929902662
25.025999999955,0.611641644958498
25.026099999955,0.611684434444856
25.026199999955,0.611727160791477
25.026299999955,0.611772329252116
25.026399999955,0.611814857120819
25.026499999955,0.611857319415412
25.026599999955,0.611899715980232
25.026699999955,0.611942047573513
25.026799999955,0.611984314585924
25.026899999955,0.612026517165036
25.026999999955,0.612068656218688
25.027099999955,0.612110732220733
25.027199999955,0.612157637677955
25.027299999955,0.612198922847988
25.027399999955,0.61224015550741
25.027499999955,0.612282636811794
25.027599999955,0.612323805336133
25.027699999955,0.612364915691217
25.027799999955,0.612407183783158
25.027899999955,0.612449351995281
25.027999999955,0.612491466571785
25.028099999955,0.612533528542004
25.028199999955,0.612575539182042
25.028299999955,0.612617499903859
25.028399999955,0.612659411882558
25.028499999955,0.612701275841626
25.028599999955,0.612743095146161
25.028699999955,0.612784877330251
25.028799999955,0.612826624410267
25.028899999955,0.612868336238396
25.028999999955,0.612910012295371
25.029099999955,0.612951652398652
25.029199999955,0.612993256031685
25.029299999955,0.61303482341534
25.029399999955,0.613078863064515
25.029499999955,0.613120655212458
25.029599999955,0.613162601440802
25.029699999955,0.613204692693361
25.029799999955,0.613246918682353
25.029899999955,0.613290117548992
25.029999999955,0.61333267663191
25.030099999955,0.613375337677807
25.030199999955,0.613418091672258
25.030299999955,0.613460930983648
25.030399999955,0.613503848242979
25.030499999955,0.613547380500386
25.030599999955,0.613590479333887
25.030699999955,0.613633639601161
25.030799999955,0.613685456386177
25.030899999955,0.613728939294237
25.030999999955,0.613772469192853
25.031099999955,0.613815572648502
25.031199999955,0.61385917839315
25.031299999955,0.613904785227936
25.031399999955,0.613948695099803
25.031499999955,0.613992627151277
25.031599999955,0.614036578763604
25.031699999955,0.614080547134404
25.031799999955,0.614124530055959
25.031899999955,0.614168524974163
25.031999999955,0.614212530223885
25.032099999955,0.614256543569374
25.032199999955,0.614300125260219
25.032299999955,0.614344400672614
25.032399999955,0.614388683102827
25.032499999955,0.614432971896397
25.032599999955,0.614477266098416
25.032699999955,0.614521565194561
25.032799999955,0.614565868645896
25.032899999955,0.614610175521267
25.032999999955,0.614654485512951
25.033099999955,0.614698797364436
25.033199999955,0.614743110814721
25.033299999955,0.614787425288415
25.033399999955,0.614831739814267
25.033499999955,0.61487605357138
25.033599999955,0.614920365724186
25.033699999955,0.614964676935301
25.033799999955,0.615008986628807
25.033899999955,0.615053295575129
25.033999999955,0.615097603154228
25.034099999955,0.615141909138084
25.034199999955,0.615186213266413
25.034299999955,0.615236417598518
25.034399999955,0.615280881340483
25.034499999955,0.61532699783271
25.034599999955,0.61537199098102
25.034699999955,0.615416983634843
25.034799999955,0.61546197745284
25.034899999955,0.615506973540272
25.034999999955,0.615551972473677
25.035099999955,0.615597378494543
25.035199999955,0.615642332732681
25.035299999955,0.615688479690059
25.035399999955,0.615734782883482
25.035499999955,0.615782869509483
25.035599999955,0.61583092204845
25.035699999955,0.615878509271564
25.035799999955,0.615926229312732
25.035899999955,0.615974076290088
25.035999999955,0.61602204244133
25.036099999955,0.616070120664835
25.036199999955,0.616118304718924
25.036299999955,0.616170370902937
25.036399999955,0.616218944777162
25.036499999955,0.616267610446342
25.036599999955,0.616315875221566
25.036699999955,0.616366424970915
25.036799999955,0.6164151977163
25.036899999955,0.616463978126679
25.036999999955,0.616514085937151
25.037099999955,0.616563443797772
25.037199999955,0.616612769121369
25.037299999955,0.616662072683189
25.037399999955,0.616711354699709
25.037499999955,0.616760616081337
25.037599999955,0.616810483326253
25.037699999955,0.616859749891234
25.037799999955,0.61690899778615
25.037899999955,0.616958226848292
25.037999999955,0.617007437439836
25.038099999955,0.617059290687122
25.038199999955,0.617109076933917
25.038299999955,0.617158848163359
25.038399999955,0.617212587842472
25.038499999955,0.617262195455867
25.038599999955,0.617311784776118
25.038699999955,0.617361357274425
25.038799999955,0.617410914599479
25.038899999955,0.617460457660758
25.038999999955,0.617509987397185
25.039099999955,0.617559504075593
25.039199999955,0.617609008369456
25.039299999955,0.617658500156721
25.039399999955,0.617707979980733
25.039499999955,0.617757447531758
25.039599999955,0.617807582519893
25.039699999955,0.617857239295579
25.039799999955,0.617906797867043
25.039899999955,0.617956364723938
25.039999999955,0.61800589732764
25.040099999955,0.618055392122393
25.040199999955,0.61810464039974
25.040299999955,0.618153615183609
25.040399999955,0.618202504301577
25.040499999955,0.618251310461124
25.040599999955,0.618300036540554
25.040699999955,0.618348683472946
25.040799999955,0.618398048556095
25.040899999955,0.618446565746581
25.040999999955,0.618495009696285
25.041099999955,0.618543381305279
25.041199999955,0.618591681792632
25.041299999955,0.618639911852281
25.041399999955,0.618688074335563
25.041499999955,0.618736171441008
25.041599999955,0.618785560767739
25.041699999955,0.618833948989299
25.041799999955,0.618882273493329
25.041899999955,0.618930535307876
25.041999999955,0.618978923743635
25.042099999955,0.6190270668518
25.042199999955,0.619075155018435
25.042299999955,0.619123186840527
25.042399999955,0.619171165536414
25.042499999955,0.619219370223168
25.042599999955,0.619267287838835
25.042699999955,0.619316273302356
25.042799999955,0.619362725063981
25.042899999955,0.619407704888169
25.042999999955,0.619452363150273
25.043099999955,0.619497187129508
25.043199999955,0.619541639485087
25.043299999955,0.619585987949247
25.043399999955,0.619630178308822
25.043499999955,0.619674218703152
25.043599999955,0.619718117340739
25.043699999955,0.619761880929843
25.043799999955,0.619805516036792
25.043899999955,0.619849029294164
25.043999999955,0.619892430198918
25.044099999955,0.619935726349902
25.044199999955,0.620007856996462
25.044299999955,0.620059949507608
25.044399999955,0.620112360131843
25.044499999955,0.620166251462889
25.044599999955,0.620217873240232
25.044699999955,0.620269061285017
25.044799999955,0.620319830831983
25.044899999955,0.620370195290028
25.044999999955,0.620421249504619
25.045099999955,0.620470942449654
25.045199999955,0.620520269785217
25.045299999955,0.620569242771417
25.045399999955,0.620617872385697
25.045499999955,0.62066728930302
25.045599999955,0.620715000017099
25.045699999955,0.620763071595401
25.045799999955,0.620810853321299
25.045899999955,0.620858354091758
25.045999999955,0.620905581297886
25.046099999955,0.620955971637925
25.046199999955,0.621006224899089
25.046299999955,0.621056094699403
25.046399999955,0.621105596168122
25.046499999955,0.621155058418331
25.046599999955,0.621204042568794
25.046699999955,0.621253013839287
25.046799999955,0.621301378909233
25.046899999955,0.621349445628315
25.046999999955,0.621397224746236
25.047099999955,0.621444725577288
25.047199999955,0.621491957483854
25.047299999955,0.62153602755535
25.047399999955,0.621582877425063
25.047499999955,0.62162948798488
25.047599999955,0.621675866588894
25.047699999955,0.621722019398416
25.047799999955,0.621767952707533
25.047899999955,0.621813672904297
25.047999999955,0.621859186510035
25.048099999955,0.62190449934924
25.048199999955,0.621949616264689
25.048299999955,0.62199343845806
25.048399999955,0.622037355153142
25.048499999955,0.622081968231885
25.048599999955,0.622125721168424
25.048699999955,0.622169372285822
25.048799999955,0.62221292343056
25.048899999955,0.622256377070114
25.048999999955,0.622299734802922
25.049099999955,0.622342998277715
25.049199999955,0.62238617045954
25.049299999955,0.622429253922402
25.049399999955,0.622472250644112
25.049499999955,0.622515352330593
25.049599999955,0.622559070062407
25.049699999955,0.622603868178355
25.049799999955,0.622647105267097
25.049899999955,0.622693727348664
25.049999999955,0.622737081247604
25.050099999955,0.622780119900011
25.050199999955,0.622822374758028
25.050299999955,0.622864576570879
25.050399999955,0.622906772131288
25.050499999955,0.622948961781623
25.050599999955,0.622991145935488
25.050699999955,0.623033324675735
25.050799999955,0.623075811121103
25.050899999955,0.623118097479033
25.050999999955,0.623160378272343
25.051099999955,0.623202654934619
25.051199999955,0.623244928481022
25.051299999955,0.62328719982026
25.051399999955,0.623329470279028
25.051499999955,0.623371740453709
25.051599999955,0.623414011327342
25.051699999955,0.623456283829105
25.051799999955,0.623498559372486
25.051899999955,0.623540837977903
25.051999999955,0.623583119180792
25.052099999955,0.623625403367332
25.052199999955,0.623667689887053
25.052299999955,0.623709978312169
25.052399999955,0.623752268729637
25.052499999955,0.623794560630855
25.052599999955,0.623836854210666
25.052699999955,0.623879149877093
25.052799999955,0.623921447178746
25.052899999955,0.623963746908509
25.052999999955,0.624006048688119
25.053099999955,0.624048667894677
25.053199999955,0.624092163242636
25.053299999955,0.624135576388538
25.053399999955,0.624182118462647
25.053499999955,0.624228386242311
25.053599999955,0.624272038568647
25.053699999955,0.624315660774535
25.053799999955,0.624360385169994
25.053899999955,0.624404259608574
25.053999999955,0.624448096862943
25.054099999955,0.624492827846781
25.054199999955,0.624539271161783
25.054299999955,0.624587138303618
25.054399999955,0.624636205578677
25.054499999955,0.624686294611894
25.054599999955,0.624737261970455
25.054699999955,0.624788989452302
25.054799999955,0.624841380346659
25.054899999955,0.624894354654801
25.054999999955,0.624947641672711
25.055099999955,0.625000529360801
25.055199999955,0.62505333963712
25.055299999955,0.62510606954232
25.055399999955,0.62516121812859
25.055499999955,0.62521394587982
25.055599999955,0.625266599927666
25.055699999955,0.62531918158428
25.055799999955,0.625371691866145
25.055899999955,0.625424131870328
25.055999999955,0.625477341774207
25.056099999955,0.625529077856163
25.056199999955,0.62557773351414
25.056299999955,0.625627148702998
25.056399999955,0.625676055704832
25.056499999955,0.625724454858522
25.056599999955,0.625772774033065
25.056699999955,0.625821015285107
25.056799999955,0.62586957953917
25.056899999955,0.625917667295141
25.056999999955,0.625965681584583
25.057099999955,0.626013623976812
25.057199999955,0.626061497176968
25.057299999955,0.626109299887177
25.057399999955,0.626157033482386
25.057499999955,0.626206275478216
25.057599999955,0.626255892717021
25.057699999955,0.626304307962533
25.057799999955,0.626352655365084
25.057899999955,0.62640095041742
25.057999999955,0.626449165164387
25.058099999955,0.626497314431018
25.058199999955,0.626545399030827
